Time (s)	WE(1).Potential (V)	WE(1).Current (A)	Scan
5.30073398661693	-0.5999755859375	-2.62451171875E-08	1
5.33073398654119	-0.60028076171875	-2.44140625E-08	1
5.36073398646545	-0.6005859375	-2.57568359375E-08	1
5.39073398638971	-0.60089111328125	-2.642822265625E-08	1
5.42073398631396	-0.6011962890625	-2.3712158203125E-08	1
5.45073398623822	-0.60150146484375	-2.4810791015625E-08	1
5.48073398616248	-0.601806640625	-2.6031494140625E-08	1
5.51073398608673	-0.60211181640625	-2.5238037109375E-08	1
5.54073398601099	-0.6024169921875	-3.1829833984375E-08	1
5.57073398593525	-0.60272216796875	-2.4627685546875E-08	1
5.60073398585951	-0.60302734375	-2.3590087890625E-08	1
5.63073398578376	-0.60333251953125	-2.0111083984375E-08	1
5.66073398570802	-0.6036376953125	-2.392578125E-08	1
5.69073398563228	-0.6036376953125	-2.6275634765625E-08	1
5.72073398555654	-0.60394287109375	-2.33154296875E-08	1
5.75073398548079	-0.604248046875	-2.1514892578125E-08	1
5.78073398540505	-0.60455322265625	-2.57568359375E-08	1
5.81073398532931	-0.6048583984375	-2.4993896484375E-08	1
5.84073398525356	-0.60516357421875	-2.606201171875E-08	1
5.87073398517782	-0.60546875	-2.3223876953125E-08	1
5.90073398510208	-0.60577392578125	-2.5115966796875E-08	1
5.93073398502634	-0.6060791015625	-2.685546875E-08	1
5.96073398495059	-0.60638427734375	-2.4627685546875E-08	1
5.99073398487485	-0.606689453125	-2.734375E-08	1
6.02073398479911	-0.60699462890625	-2.7923583984375E-08	1
6.05073398472337	-0.60699462890625	-2.569580078125E-08	1
6.08073398464762	-0.60760498046875	-2.496337890625E-08	1
6.11073398457188	-0.60760498046875	-2.7313232421875E-08	1
6.14073398449614	-0.60791015625	-3.2562255859375E-08	1
6.17073398442039	-0.60821533203125	-2.55126953125E-08	1
6.20073398434465	-0.6085205078125	-2.4566650390625E-08	1
6.23073398426891	-0.60882568359375	-2.7496337890625E-08	1
6.26073398419317	-0.609130859375	-2.313232421875E-08	1
6.29073398411742	-0.60943603515625	-2.972412109375E-08	1
6.32073398404168	-0.6097412109375	-2.18505859375E-08	1
6.35073398396594	-0.61004638671875	-2.42919921875E-08	1
6.3807339838902	-0.6103515625	-2.935791015625E-08	1
6.41073398381445	-0.61065673828125	-2.911376953125E-08	1
6.44073398373871	-0.6109619140625	-2.398681640625E-08	1
6.47073398366297	-0.6109619140625	-2.5421142578125E-08	1
6.50073398358722	-0.61126708984375	-2.72216796875E-08	1
6.53073398351148	-0.611572265625	-2.5238037109375E-08	1
6.56073398343574	-0.61187744140625	-3.0670166015625E-08	1
6.59073398336	-0.6121826171875	-2.5421142578125E-08	1
6.62073398328425	-0.61248779296875	-2.5054931640625E-08	1
6.65073398320851	-0.61279296875	-2.7130126953125E-08	1
6.68073398313277	-0.61309814453125	-2.44140625E-08	1
6.71073398305703	-0.6134033203125	-2.5604248046875E-08	1
6.74073398298128	-0.61370849609375	-2.47802734375E-08	1
6.77073398290554	-0.614013671875	-2.3773193359375E-08	1
6.8007339828298	-0.614013671875	-2.532958984375E-08	1
6.83073398275405	-0.61431884765625	-1.8341064453125E-08	1
6.86073398267831	-0.6146240234375	-2.7374267578125E-08	1
6.89073398260257	-0.61492919921875	-2.3193359375E-08	1
6.92073398252683	-0.615234375	-2.9022216796875E-08	1
6.95073398245108	-0.61553955078125	-2.734375E-08	1
6.98073398237534	-0.6158447265625	-2.2216796875E-08	1
7.0107339822996	-0.61614990234375	-2.777099609375E-08	1
7.04073398222386	-0.616455078125	-2.6702880859375E-08	1
7.07073398214811	-0.61676025390625	-2.581787109375E-08	1
7.10073398207237	-0.6170654296875	-3.4332275390625E-08	1
7.13073398199663	-0.61737060546875	-2.34375E-08	1
7.16073398192088	-0.61767578125	-2.2552490234375E-08	1
7.19073398184514	-0.61767578125	-2.4871826171875E-08	1
7.2207339817694	-0.61798095703125	-2.6336669921875E-08	1
7.25073398169366	-0.6182861328125	-2.3773193359375E-08	1
7.28073398161791	-0.61859130859375	-2.44140625E-08	1
7.31073398154217	-0.618896484375	-2.8167724609375E-08	1
7.34073398146643	-0.61920166015625	-2.8411865234375E-08	1
7.37073398139069	-0.6195068359375	-2.392578125E-08	1
7.40073398131494	-0.61981201171875	-2.2613525390625E-08	1
7.4307339812392	-0.6201171875	-2.459716796875E-08	1
7.46073398116346	-0.62042236328125	-2.8106689453125E-08	1
7.49073398108771	-0.6207275390625	-2.4169921875E-08	1
7.52073398101197	-0.62103271484375	-2.55126953125E-08	1
7.55073398093623	-0.62103271484375	-2.4871826171875E-08	1
7.58073398086049	-0.621337890625	-2.294921875E-08	1
7.61073398078474	-0.62164306640625	-2.7801513671875E-08	1
7.640733980709	-0.6219482421875	-3.1646728515625E-08	1
7.67073398063326	-0.62225341796875	-2.618408203125E-08	1
7.70073398055752	-0.62255859375	-2.7374267578125E-08	1
7.73073398048177	-0.62286376953125	-2.5787353515625E-08	1
7.76073398040603	-0.6231689453125	-2.6763916015625E-08	1
7.79073398033029	-0.62347412109375	-2.33154296875E-08	1
7.82073398025454	-0.62347412109375	-2.4139404296875E-08	1
7.8507339801788	-0.623779296875	-2.60009765625E-08	1
7.88073398010306	-0.62408447265625	-2.5054931640625E-08	1
7.91073398002732	-0.6243896484375	-1.9287109375E-08	1
7.94073397995157	-0.62469482421875	-2.825927734375E-08	1
7.97073397987583	-0.625	-2.313232421875E-08	1
8.00073397980009	-0.62530517578125	-2.3773193359375E-08	1
8.03073397972435	-0.6256103515625	-2.5299072265625E-08	1
8.0607339796486	-0.62591552734375	-2.459716796875E-08	1
8.09073397957286	-0.626220703125	-2.8594970703125E-08	1
8.12073397949712	-0.62652587890625	-2.703857421875E-08	1
8.15073397942137	-0.6268310546875	-2.45361328125E-08	1
8.18073397934563	-0.62713623046875	-2.3345947265625E-08	1
8.21073397926989	-0.62744140625	-2.5482177734375E-08	1
8.24073397919415	-0.62774658203125	-2.398681640625E-08	1
8.2707339791184	-0.6280517578125	-2.4932861328125E-08	1
8.30073397904266	-0.6280517578125	-2.8045654296875E-08	1
8.33073397896692	-0.62835693359375	-1.8463134765625E-08	1
8.36073397889118	-0.628662109375	-2.197265625E-08	1
8.39073397881543	-0.62896728515625	-2.91748046875E-08	1
8.42073397873969	-0.6292724609375	-2.3773193359375E-08	1
8.45073397866395	-0.62957763671875	-3.0853271484375E-08	1
8.48073397858821	-0.6298828125	-2.801513671875E-08	1
8.51073397851246	-0.63018798828125	-2.8717041015625E-08	1
8.54073397843672	-0.6304931640625	-3.0029296875E-08	1
8.57073397836098	-0.63079833984375	-2.7069091796875E-08	1
8.60073397828523	-0.631103515625	-3.155517578125E-08	1
8.63073397820949	-0.63140869140625	-2.2369384765625E-08	1
8.66073397813375	-0.63140869140625	-2.7313232421875E-08	1
8.69073397805801	-0.6317138671875	-2.459716796875E-08	1
8.72073397798226	-0.63201904296875	-2.5970458984375E-08	1
8.75073397790652	-0.63232421875	-2.532958984375E-08	1
8.78073397783078	-0.63262939453125	-2.484130859375E-08	1
8.81073397775504	-0.6329345703125	-2.532958984375E-08	1
8.84073397767929	-0.63323974609375	-2.740478515625E-08	1
8.87073397760355	-0.633544921875	-2.44140625E-08	1
8.90073397752781	-0.63385009765625	-2.5177001953125E-08	1
8.93073397745206	-0.6341552734375	-2.3529052734375E-08	1
8.96073397737632	-0.63446044921875	-3.0853271484375E-08	1
8.99073397730058	-0.634765625	-2.154541015625E-08	1
9.02073397722484	-0.63507080078125	-2.5238037109375E-08	1
9.05073397714909	-0.63507080078125	-2.5482177734375E-08	1
9.08073397707335	-0.6353759765625	-2.5543212890625E-08	1
9.11073397699761	-0.63568115234375	-2.7374267578125E-08	1
9.14073397692187	-0.635986328125	-2.9205322265625E-08	1
9.17073397684612	-0.63629150390625	-2.703857421875E-08	1
9.20073397677038	-0.6365966796875	-2.69775390625E-08	1
9.23073397669464	-0.63690185546875	-2.3040771484375E-08	1
9.26073397661889	-0.63720703125	-2.9571533203125E-08	1
9.29073397654315	-0.63751220703125	-2.5146484375E-08	1
9.32073397646741	-0.6378173828125	-3.2684326171875E-08	1
9.35073397639167	-0.63812255859375	-2.392578125E-08	1
9.38073397631592	-0.63812255859375	-2.81982421875E-08	1
9.41073397624018	-0.638427734375	-2.7923583984375E-08	1
9.44073397616444	-0.63873291015625	-2.9876708984375E-08	1
9.4707339760887	-0.6390380859375	-2.5543212890625E-08	1
9.50073397601295	-0.63934326171875	-2.5787353515625E-08	1
9.53073397593721	-0.6396484375	-2.25830078125E-08	1
9.56073397586147	-0.63995361328125	-3.106689453125E-08	1
9.59073397578572	-0.6402587890625	-2.8717041015625E-08	1
9.62073397570998	-0.64056396484375	-2.5146484375E-08	1
9.65073397563424	-0.640869140625	-2.7496337890625E-08	1
9.6807339755585	-0.64117431640625	-2.685546875E-08	1
9.71073397548275	-0.64117431640625	-2.5421142578125E-08	1
9.74073397540701	-0.6414794921875	-2.9388427734375E-08	1
9.77073397533127	-0.64178466796875	-2.642822265625E-08	1
9.80073397525553	-0.64208984375	-2.8106689453125E-08	1
9.83073397517978	-0.64239501953125	-2.6397705078125E-08	1
9.86073397510404	-0.6427001953125	-3.082275390625E-08	1
9.8907339750283	-0.64300537109375	-3.0792236328125E-08	1
9.92073397495255	-0.643310546875	-2.2247314453125E-08	1
9.95073397487681	-0.64361572265625	-2.2552490234375E-08	1
9.98073397480107	-0.6439208984375	-3.3966064453125E-08	1
10.0107339747253	-0.64422607421875	-2.8076171875E-08	1
10.0407339746496	-0.64453125	-2.6885986328125E-08	1
10.0707339745738	-0.64483642578125	-3.143310546875E-08	1
10.1007339744981	-0.64483642578125	-2.6947021484375E-08	1
10.1307339744224	-0.6451416015625	-2.4658203125E-08	1
10.1607339743466	-0.64544677734375	-2.685546875E-08	1
10.1907339742709	-0.645751953125	-2.7740478515625E-08	1
10.2207339741951	-0.64605712890625	-2.2674560546875E-08	1
10.2507339741194	-0.6463623046875	-3.21044921875E-08	1
10.2807339740436	-0.64666748046875	-2.77099609375E-08	1
10.3107339739679	-0.64697265625	-2.978515625E-08	1
10.3407339738922	-0.64727783203125	-2.89306640625E-08	1
10.3707339738164	-0.6475830078125	-2.69775390625E-08	1
10.4007339737407	-0.64788818359375	-2.728271484375E-08	1
10.4307339736649	-0.648193359375	-2.2705078125E-08	1
10.4607339735892	-0.648193359375	-2.6153564453125E-08	1
10.4907339735134	-0.64849853515625	-2.490234375E-08	1
10.5207339734377	-0.6488037109375	-3.1219482421875E-08	1
10.550733973362	-0.64910888671875	-2.9083251953125E-08	1
10.5807339732862	-0.6494140625	-2.7069091796875E-08	1
10.6107339732105	-0.64971923828125	-3.0792236328125E-08	1
10.6407339731347	-0.6500244140625	-2.264404296875E-08	1
10.670733973059	-0.65032958984375	-2.349853515625E-08	1
10.7007339729832	-0.650634765625	-2.862548828125E-08	1
10.7307339729075	-0.65093994140625	-2.923583984375E-08	1
10.7607339728318	-0.6512451171875	-2.630615234375E-08	1
10.790733972756	-0.6512451171875	-2.508544921875E-08	1
10.8207339726803	-0.65155029296875	-3.1280517578125E-08	1
10.8507339726045	-0.65185546875	-2.716064453125E-08	1
10.8807339725288	-0.65216064453125	-2.4871826171875E-08	1
10.910733972453	-0.6524658203125	-2.7191162109375E-08	1
10.9407339723773	-0.65277099609375	-2.9052734375E-08	1
10.9707339723016	-0.653076171875	-2.38037109375E-08	1
11.0007339722258	-0.65338134765625	-2.825927734375E-08	1
11.0307339721501	-0.6536865234375	-2.825927734375E-08	1
11.0607339720743	-0.65399169921875	-2.8411865234375E-08	1
11.0907339719986	-0.654296875	-2.8076171875E-08	1
11.1207339719228	-0.65460205078125	-2.62451171875E-08	1
11.1507339718471	-0.6549072265625	-2.490234375E-08	1
11.1807339717714	-0.65521240234375	-2.618408203125E-08	1
11.2107339716956	-0.65521240234375	-2.47802734375E-08	1
11.2407339716199	-0.655517578125	-2.972412109375E-08	1
11.2707339715441	-0.65582275390625	-2.2186279296875E-08	1
11.3007339714684	-0.6561279296875	-3.192138671875E-08	1
11.3307339713926	-0.65643310546875	-2.3406982421875E-08	1
11.3607339713169	-0.65673828125	-2.5787353515625E-08	1
11.3907339712412	-0.65704345703125	-2.8594970703125E-08	1
11.4207339711654	-0.6573486328125	-3.2806396484375E-08	1
11.4507339710897	-0.65765380859375	-3.02734375E-08	1
11.4807339710139	-0.657958984375	-2.3193359375E-08	1
11.5107339709382	-0.657958984375	-2.9510498046875E-08	1
11.5407339708624	-0.65826416015625	-2.9022216796875E-08	1
11.5707339707867	-0.6585693359375	-2.3712158203125E-08	1
11.600733970711	-0.65887451171875	-2.972412109375E-08	1
11.6307339706352	-0.6591796875	-2.2552490234375E-08	1
11.6607339705595	-0.65948486328125	-2.9510498046875E-08	1
11.6907339704837	-0.6597900390625	-2.655029296875E-08	1
11.720733970408	-0.66009521484375	-2.996826171875E-08	1
11.7507339703322	-0.660400390625	-2.7923583984375E-08	1
11.7807339702565	-0.66070556640625	-2.8900146484375E-08	1
11.8107339701808	-0.6610107421875	-2.8167724609375E-08	1
11.840733970105	-0.6610107421875	-3.045654296875E-08	1
11.8707339700293	-0.66131591796875	-2.63671875E-08	1
11.9007339699535	-0.66162109375	-3.47900390625E-08	1
11.9307339698778	-0.66192626953125	-2.374267578125E-08	1
11.9607339698021	-0.6622314453125	-2.7496337890625E-08	1
11.9907339697263	-0.66253662109375	-2.6519775390625E-08	1
12.0207339696506	-0.662841796875	-2.6763916015625E-08	1
12.0507339695748	-0.66314697265625	-2.362060546875E-08	1
12.0807339694991	-0.6634521484375	-3.143310546875E-08	1
12.1107339694233	-0.66375732421875	-2.5726318359375E-08	1
12.1407339693476	-0.6640625	-2.8533935546875E-08	1
12.1707339692719	-0.66436767578125	-2.5146484375E-08	1
12.2007339691961	-0.6646728515625	-2.606201171875E-08	1
12.2307339691204	-0.66497802734375	-2.45361328125E-08	1
12.2607339690446	-0.66497802734375	-3.125E-08	1
12.2907339689689	-0.665283203125	-2.2918701171875E-08	1
12.3207339688931	-0.66558837890625	-2.9571533203125E-08	1
12.3507339688174	-0.6658935546875	-3.0426025390625E-08	1
12.3807339687417	-0.66619873046875	-2.734375E-08	1
12.4107339686659	-0.66650390625	-2.1270751953125E-08	1
12.4407339685902	-0.66680908203125	-2.947998046875E-08	1
12.4707339685144	-0.6671142578125	-2.508544921875E-08	1
12.5007339684387	-0.66741943359375	-2.6519775390625E-08	1
12.5307339683629	-0.667724609375	-2.6153564453125E-08	1
12.5607339682872	-0.66802978515625	-2.9937744140625E-08	1
12.5907339682115	-0.6683349609375	-2.8472900390625E-08	1
12.6207339681357	-0.6683349609375	-3.0975341796875E-08	1
12.65073396806	-0.66864013671875	-2.6336669921875E-08	1
12.6807339679842	-0.6689453125	-2.4871826171875E-08	1
12.7107339679085	-0.66925048828125	-2.740478515625E-08	1
12.7407339678327	-0.6695556640625	-2.337646484375E-08	1
12.770733967757	-0.66986083984375	-2.5177001953125E-08	1
12.8007339676813	-0.670166015625	-2.6031494140625E-08	1
12.8307339676055	-0.67047119140625	-2.2613525390625E-08	1
12.8607339675298	-0.6707763671875	-3.0975341796875E-08	1
12.890733967454	-0.67108154296875	-2.7557373046875E-08	1
12.9207339673783	-0.67138671875	-3.2012939453125E-08	1
12.9507339673025	-0.67169189453125	-2.5177001953125E-08	1
12.9807339672268	-0.67169189453125	-3.33251953125E-08	1
13.0107339671511	-0.6719970703125	-2.1484375E-08	1
13.0407339670753	-0.67230224609375	-2.4688720703125E-08	1
13.0707339669996	-0.672607421875	-2.3651123046875E-08	1
13.1007339669238	-0.67291259765625	-3.668212890625E-08	1
13.1307339668481	-0.6732177734375	-2.5665283203125E-08	1
13.1607339667723	-0.67352294921875	-2.4749755859375E-08	1
13.1907339666966	-0.673828125	-2.83203125E-08	1
13.2207339666209	-0.67413330078125	-2.9571533203125E-08	1
13.2507339665451	-0.6744384765625	-2.0263671875E-08	1
13.2807339664694	-0.67474365234375	-3.326416015625E-08	1
13.3107339663936	-0.675048828125	-2.630615234375E-08	1
13.3407339663179	-0.675048828125	-2.9998779296875E-08	1
13.3707339662421	-0.67535400390625	-3.045654296875E-08	1
13.4007339661664	-0.6756591796875	-3.070068359375E-08	1
13.4307339660907	-0.67596435546875	-3.076171875E-08	1
13.4607339660149	-0.67626953125	-2.789306640625E-08	1
13.4907339659392	-0.67657470703125	-2.0721435546875E-08	1
13.5207339658634	-0.6768798828125	-3.23486328125E-08	1
13.5507339657877	-0.67718505859375	-2.4505615234375E-08	1
13.5807339657119	-0.677490234375	-2.64892578125E-08	1
13.6107339656362	-0.67779541015625	-2.783203125E-08	1
13.6407339655605	-0.6781005859375	-3.0914306640625E-08	1
13.6707339654847	-0.6781005859375	-2.752685546875E-08	1
13.700733965409	-0.67840576171875	-3.3721923828125E-08	1
13.7307339653332	-0.6787109375	-2.9296875E-08	1
13.7607339652575	-0.67901611328125	-2.532958984375E-08	1
13.7907339651817	-0.6793212890625	-2.7069091796875E-08	1
13.820733965106	-0.67962646484375	-3.0426025390625E-08	1
13.8507339650303	-0.679931640625	-2.6763916015625E-08	1
13.8807339649545	-0.68023681640625	-2.7801513671875E-08	1
13.9107339648788	-0.6805419921875	-2.545166015625E-08	1
13.940733964803	-0.68084716796875	-3.3416748046875E-08	1
13.9707339647273	-0.68115234375	-2.8228759765625E-08	1
14.0007339646515	-0.68145751953125	-3.253173828125E-08	1
14.0307339645758	-0.68145751953125	-2.50244140625E-08	1
14.0607339645001	-0.6817626953125	-3.118896484375E-08	1
14.0907339644243	-0.68206787109375	-2.9937744140625E-08	1
14.1207339643486	-0.682373046875	-3.08837890625E-08	1
14.1507339642728	-0.68267822265625	-2.2979736328125E-08	1
14.1807339641971	-0.6829833984375	-3.173828125E-08	1
14.2107339641213	-0.68328857421875	-2.2705078125E-08	1
14.2407339640456	-0.68359375	-2.9266357421875E-08	1
14.2707339639699	-0.68389892578125	-2.6031494140625E-08	1
14.3007339638941	-0.6842041015625	-3.3294677734375E-08	1
14.3307339638184	-0.68450927734375	-2.8350830078125E-08	1
14.3607339637426	-0.684814453125	-3.0609130859375E-08	1
14.3907339636669	-0.684814453125	-2.825927734375E-08	1
14.4207339635911	-0.68511962890625	-3.0517578125E-08	1
14.4507339635154	-0.6854248046875	-2.4444580078125E-08	1
14.4807339634397	-0.68572998046875	-2.9144287109375E-08	1
14.5107339633639	-0.68603515625	-2.838134765625E-08	1
14.5407339632882	-0.68634033203125	-3.02734375E-08	1
14.5707339632124	-0.6866455078125	-2.9541015625E-08	1
14.6007339631367	-0.68695068359375	-3.375244140625E-08	1
14.6307339630609	-0.687255859375	-2.508544921875E-08	1
14.6607339629852	-0.68756103515625	-3.192138671875E-08	1
14.6907339629095	-0.6878662109375	-2.35595703125E-08	1
14.7207339628337	-0.68817138671875	-3.2501220703125E-08	1
14.750733962758	-0.68817138671875	-2.67333984375E-08	1
14.7807339626822	-0.6884765625	-3.411865234375E-08	1
14.8107339626065	-0.68878173828125	-2.62451171875E-08	1
14.8407339625307	-0.6890869140625	-3.289794921875E-08	1
14.870733962455	-0.68939208984375	-2.3529052734375E-08	1
14.9007339623793	-0.689697265625	-3.570556640625E-08	1
14.9307339623035	-0.69000244140625	-2.3895263671875E-08	1
14.9607339622278	-0.6903076171875	-3.4149169921875E-08	1
14.990733962152	-0.69061279296875	-2.520751953125E-08	1
15.0207339620763	-0.69091796875	-3.1463623046875E-08	1
15.0507339620006	-0.69122314453125	-2.45361328125E-08	1
15.0807339619248	-0.69122314453125	-3.0914306640625E-08	1
15.1107339618491	-0.6915283203125	-2.7587890625E-08	1
15.1407339617733	-0.69183349609375	-3.35693359375E-08	1
15.1707339616976	-0.692138671875	-2.984619140625E-08	1
15.2007339616218	-0.69244384765625	-2.8533935546875E-08	1
15.2307339615461	-0.6927490234375	-2.520751953125E-08	1
15.2607339614704	-0.69305419921875	-2.7862548828125E-08	1
15.2907339613946	-0.693359375	-2.0660400390625E-08	1
15.3207339613189	-0.69366455078125	-3.2470703125E-08	1
15.3507339612431	-0.6939697265625	-2.8228759765625E-08	1
15.3807339611674	-0.69427490234375	-2.8778076171875E-08	1
15.4107339610916	-0.694580078125	-2.1759033203125E-08	1
15.4407339610159	-0.694580078125	-3.0548095703125E-08	1
15.4707339609402	-0.69488525390625	-2.5726318359375E-08	1
15.5007339608644	-0.6951904296875	-3.0059814453125E-08	1
15.5307339607887	-0.69549560546875	-3.06396484375E-08	1
15.5607339607129	-0.69580078125	-3.03955078125E-08	1
15.5907339606372	-0.69610595703125	-2.874755859375E-08	1
15.6207339605614	-0.6964111328125	-3.326416015625E-08	1
15.6507339604857	-0.69671630859375	-2.7496337890625E-08	1
15.68073396041	-0.697021484375	-3.4820556640625E-08	1
15.7107339603342	-0.69732666015625	-2.935791015625E-08	1
15.7407339602585	-0.6976318359375	-2.9876708984375E-08	1
15.7707339601827	-0.69793701171875	-2.6031494140625E-08	1
