Time (s)	WE(1).Potential (V)	WE(1).Current (A)	Scan
4.9880419874064	-0.60028076171875	-2.50244140625E-08	1
5.01804198733066	-0.6005859375	-2.4078369140625E-08	1
5.04804198725492	-0.60089111328125	-2.47802734375E-08	1
5.07804198717918	-0.6011962890625	-2.9327392578125E-08	1
5.10804198710343	-0.6011962890625	-2.05078125E-08	1
5.13804198702769	-0.60150146484375	-2.3895263671875E-08	1
5.16804198695195	-0.601806640625	-2.2918701171875E-08	1
5.19804198687621	-0.60211181640625	-2.0050048828125E-08	1
5.22804198680046	-0.6024169921875	-2.5360107421875E-08	1
5.25804198672472	-0.60272216796875	-2.6336669921875E-08	1
5.28804198664898	-0.60302734375	-2.4139404296875E-08	1
5.31804198657323	-0.60333251953125	-2.4200439453125E-08	1
5.34804198649749	-0.6036376953125	-2.203369140625E-08	1
5.37804198642175	-0.60394287109375	-2.4566650390625E-08	1
5.40804198634601	-0.604248046875	-2.20947265625E-08	1
5.43804198627026	-0.60455322265625	-2.8045654296875E-08	1
5.46804198619452	-0.6048583984375	-2.252197265625E-08	1
5.49804198611878	-0.60516357421875	-2.276611328125E-08	1
5.52804198604304	-0.60546875	-2.294921875E-08	1
5.55804198596729	-0.60577392578125	-3.009033203125E-08	1
5.58804198589155	-0.6060791015625	-2.691650390625E-08	1
5.61804198581581	-0.60638427734375	-2.203369140625E-08	1
5.64804198574006	-0.606689453125	-2.7099609375E-08	1
5.67804198566432	-0.60699462890625	-2.2613525390625E-08	1
5.70804198558858	-0.6072998046875	-2.2308349609375E-08	1
5.73804198551284	-0.60760498046875	-2.655029296875E-08	1
5.76804198543709	-0.60791015625	-1.812744140625E-08	1
5.79804198536135	-0.60821533203125	-2.4169921875E-08	1
5.82804198528561	-0.6085205078125	-2.9205322265625E-08	1
5.85804198520987	-0.60882568359375	-2.349853515625E-08	1
5.88804198513412	-0.609130859375	-2.23388671875E-08	1
5.91804198505838	-0.60943603515625	-2.20947265625E-08	1
5.94804198498264	-0.6097412109375	-2.2613525390625E-08	1
5.97804198490689	-0.61004638671875	-2.1209716796875E-08	1
6.00804198483115	-0.61004638671875	-2.4688720703125E-08	1
6.03804198475541	-0.6103515625	-2.056884765625E-08	1
6.06804198467967	-0.61065673828125	-2.1575927734375E-08	1
6.09804198460392	-0.6109619140625	-2.5604248046875E-08	1
6.12804198452818	-0.61126708984375	-2.532958984375E-08	1
6.15804198445244	-0.611572265625	-2.3193359375E-08	1
6.1880419843767	-0.61187744140625	-2.69775390625E-08	1
6.21804198430095	-0.6121826171875	-1.9744873046875E-08	1
6.24804198422521	-0.61248779296875	-2.593994140625E-08	1
6.27804198414947	-0.61279296875	-1.7791748046875E-08	1
6.30804198407373	-0.61309814453125	-2.325439453125E-08	1
6.33804198399798	-0.6134033203125	-2.606201171875E-08	1
6.36804198392224	-0.61370849609375	-2.8656005859375E-08	1
6.3980419838465	-0.614013671875	-2.3681640625E-08	1
6.42804198377075	-0.61431884765625	-2.734375E-08	1
6.45804198369501	-0.6146240234375	-2.2491455078125E-08	1
6.48804198361927	-0.61492919921875	-2.691650390625E-08	1
6.51804198354353	-0.615234375	-2.2491455078125E-08	1
6.54804198346778	-0.61553955078125	-2.716064453125E-08	1
6.57804198339204	-0.6158447265625	-2.044677734375E-08	1
6.6080419833163	-0.61614990234375	-2.8045654296875E-08	1
6.63804198324056	-0.616455078125	-2.0904541015625E-08	1
6.66804198316481	-0.61676025390625	-2.496337890625E-08	1
6.69804198308907	-0.6170654296875	-1.96533203125E-08	1
6.72804198301333	-0.61737060546875	-2.1453857421875E-08	1
6.75804198293758	-0.61767578125	-1.9744873046875E-08	1
6.78804198286184	-0.61767578125	-3.1524658203125E-08	1
6.8180419827861	-0.61798095703125	-2.40478515625E-08	1
6.84804198271036	-0.6182861328125	-2.313232421875E-08	1
6.87804198263461	-0.61859130859375	-1.861572265625E-08	1
6.90804198255887	-0.618896484375	-2.50244140625E-08	1
6.93804198248313	-0.61920166015625	-2.45361328125E-08	1
6.96804198240739	-0.6195068359375	-2.40478515625E-08	1
6.99804198233164	-0.61981201171875	-2.520751953125E-08	1
7.0280419822559	-0.6201171875	-2.2613525390625E-08	1
7.05804198218016	-0.62042236328125	-2.545166015625E-08	1
7.08804198210441	-0.6207275390625	-2.52685546875E-08	1
7.11804198202867	-0.62103271484375	-2.142333984375E-08	1
7.14804198195293	-0.621337890625	-2.0751953125E-08	1
7.17804198187719	-0.62164306640625	-2.6763916015625E-08	1
7.20804198180144	-0.6219482421875	-2.2674560546875E-08	1
7.2380419817257	-0.62225341796875	-2.5970458984375E-08	1
7.26804198164996	-0.62255859375	-2.9449462890625E-08	1
7.29804198157422	-0.62286376953125	-2.069091796875E-08	1
7.32804198149847	-0.6231689453125	-2.392578125E-08	1
7.35804198142273	-0.62347412109375	-2.64892578125E-08	1
7.38804198134699	-0.623779296875	-2.2735595703125E-08	1
7.41804198127124	-0.62408447265625	-2.4139404296875E-08	1
7.4480419811955	-0.6243896484375	-1.812744140625E-08	1
7.47804198111976	-0.62469482421875	-2.0172119140625E-08	1
7.50804198104402	-0.625	-2.3529052734375E-08	1
7.53804198096827	-0.62530517578125	-2.2430419921875E-08	1
7.56804198089253	-0.6256103515625	-2.33154296875E-08	1
7.59804198081679	-0.62591552734375	-2.2705078125E-08	1
7.62804198074105	-0.626220703125	-2.4627685546875E-08	1
7.6580419806653	-0.62652587890625	-1.959228515625E-08	1
7.68804198058956	-0.62652587890625	-2.7862548828125E-08	1
7.71804198051382	-0.62713623046875	-2.1026611328125E-08	1
7.74804198043807	-0.62744140625	-2.642822265625E-08	1
7.77804198036233	-0.62744140625	-2.4383544921875E-08	1
7.80804198028659	-0.6280517578125	-2.47802734375E-08	1
7.83804198021085	-0.6280517578125	-2.1484375E-08	1
7.8680419801351	-0.62835693359375	-1.6937255859375E-08	1
7.89804198005936	-0.628662109375	-2.447509765625E-08	1
7.92804197998362	-0.62896728515625	-2.288818359375E-08	1
7.95804197990788	-0.6292724609375	-2.4566650390625E-08	1
7.98804197983213	-0.62957763671875	-2.30712890625E-08	1
8.01804197975639	-0.6298828125	-2.0263671875E-08	1
8.04804197968065	-0.63018798828125	-2.4444580078125E-08	1
8.0780419796049	-0.6304931640625	-2.362060546875E-08	1
8.10804197952916	-0.63079833984375	-2.64892578125E-08	1
8.13804197945342	-0.631103515625	-2.1759033203125E-08	1
8.16804197937768	-0.63140869140625	-2.142333984375E-08	1
8.19804197930193	-0.6317138671875	-2.093505859375E-08	1
8.22804197922619	-0.63201904296875	-2.4169921875E-08	1
8.25804197915045	-0.63232421875	-2.3040771484375E-08	1
8.28804197907471	-0.63262939453125	-1.9256591796875E-08	1
8.31804197899896	-0.6329345703125	-2.4658203125E-08	1
8.34804197892322	-0.63323974609375	-1.971435546875E-08	1
8.37804197884748	-0.633544921875	-2.4566650390625E-08	1
8.40804197877173	-0.63385009765625	-2.1148681640625E-08	1
8.43804197869599	-0.6341552734375	-2.6153564453125E-08	1
8.46804197862025	-0.63446044921875	-2.9937744140625E-08	1
8.49804197854451	-0.634765625	-2.5665283203125E-08	1
8.52804197846876	-0.63507080078125	-2.0477294921875E-08	1
8.55804197839302	-0.6353759765625	-2.471923828125E-08	1
8.58804197831728	-0.63568115234375	-2.313232421875E-08	1
8.61804197824154	-0.635986328125	-1.9744873046875E-08	1
8.64804197816579	-0.63629150390625	-2.5634765625E-08	1
8.67804197809005	-0.63629150390625	-1.91650390625E-08	1
8.70804197801431	-0.6365966796875	-2.3834228515625E-08	1
8.73804197793856	-0.63690185546875	-2.9022216796875E-08	1
8.76804197786282	-0.63720703125	-1.8646240234375E-08	1
8.79804197778708	-0.63751220703125	-2.13623046875E-08	1
8.82804197771134	-0.6378173828125	-2.2003173828125E-08	1
8.85804197763559	-0.63812255859375	-2.4505615234375E-08	1
8.88804197755985	-0.638427734375	-2.8106689453125E-08	1
8.91804197748411	-0.63873291015625	-1.9561767578125E-08	1
8.94804197740837	-0.6390380859375	-2.5177001953125E-08	1
8.97804197733262	-0.63934326171875	-2.69775390625E-08	1
9.00804197725688	-0.6396484375	-2.3681640625E-08	1
9.03804197718114	-0.63995361328125	-2.618408203125E-08	1
9.06804197710539	-0.6402587890625	-2.5787353515625E-08	1
9.09804197702965	-0.64056396484375	-2.3956298828125E-08	1
9.12804197695391	-0.640869140625	-2.8167724609375E-08	1
9.15804197687817	-0.64117431640625	-2.5177001953125E-08	1
9.18804197680242	-0.6414794921875	-3.0120849609375E-08	1
9.21804197672668	-0.64178466796875	-2.1514892578125E-08	1
9.24804197665094	-0.64208984375	-2.1453857421875E-08	1
9.2780419765752	-0.64239501953125	-2.01416015625E-08	1
9.30804197649945	-0.6427001953125	-2.7984619140625E-08	1
9.33804197642371	-0.64300537109375	-2.3345947265625E-08	1
9.36804197634797	-0.643310546875	-2.490234375E-08	1
9.39804197627222	-0.64361572265625	-1.8829345703125E-08	1
9.42804197619648	-0.6439208984375	-2.490234375E-08	1
9.45804197612074	-0.6439208984375	-2.2064208984375E-08	1
9.488041976045	-0.64453125	-2.1270751953125E-08	1
9.51804197596925	-0.64483642578125	-3.0517578125E-08	1
9.54804197589351	-0.6451416015625	-2.11181640625E-08	1
9.57804197581777	-0.6451416015625	-2.2369384765625E-08	1
9.60804197574203	-0.645751953125	-2.4871826171875E-08	1
9.63804197566628	-0.645751953125	-3.0731201171875E-08	1
9.66804197559054	-0.64605712890625	-2.3956298828125E-08	1
9.6980419755148	-0.6463623046875	-2.5909423828125E-08	1
9.72804197543906	-0.64666748046875	-2.52685546875E-08	1
9.75804197536331	-0.64697265625	-1.9927978515625E-08	1
9.78804197528757	-0.64727783203125	-2.777099609375E-08	1
9.81804197521183	-0.6475830078125	-2.2735595703125E-08	1
9.84804197513608	-0.64788818359375	-2.2613525390625E-08	1
9.87804197506034	-0.648193359375	-2.044677734375E-08	1
9.9080419749846	-0.64849853515625	-2.801513671875E-08	1
9.93804197490886	-0.6488037109375	-2.4322509765625E-08	1
9.96804197483311	-0.64910888671875	-2.3101806640625E-08	1
9.99804197475737	-0.6494140625	-2.9296875E-08	1
10.0280419746816	-0.64971923828125	-2.3406982421875E-08	1
10.0580419746059	-0.6500244140625	-2.386474609375E-08	1
10.0880419745301	-0.65032958984375	-2.4078369140625E-08	1
10.1180419744544	-0.650634765625	-2.3529052734375E-08	1
10.1480419743787	-0.65093994140625	-2.23388671875E-08	1
10.1780419743029	-0.6512451171875	-2.001953125E-08	1
10.2080419742272	-0.65155029296875	-2.239990234375E-08	1
10.2380419741514	-0.65185546875	-2.154541015625E-08	1
10.2680419740757	-0.65216064453125	-2.23388671875E-08	1
10.2980419739999	-0.6524658203125	-2.545166015625E-08	1
10.3280419739242	-0.65277099609375	-1.9622802734375E-08	1
10.3580419738485	-0.653076171875	-2.4993896484375E-08	1
10.3880419737727	-0.653076171875	-1.7059326171875E-08	1
10.418041973697	-0.6536865234375	-2.508544921875E-08	1
10.4480419736212	-0.6536865234375	-2.3834228515625E-08	1
10.4780419735455	-0.654296875	-2.435302734375E-08	1
10.5080419734697	-0.654296875	-2.276611328125E-08	1
10.538041973394	-0.65460205078125	-1.8280029296875E-08	1
10.5680419733183	-0.6549072265625	-1.9805908203125E-08	1
10.5980419732425	-0.65521240234375	-1.98974609375E-08	1
10.6280419731668	-0.655517578125	-2.276611328125E-08	1
10.658041973091	-0.65582275390625	-2.264404296875E-08	1
10.6880419730153	-0.6561279296875	-2.1881103515625E-08	1
10.7180419729395	-0.65643310546875	-2.3406982421875E-08	1
10.7480419728638	-0.65673828125	-2.5390625E-08	1
10.7780419727881	-0.65704345703125	-2.398681640625E-08	1
10.8080419727123	-0.6573486328125	-2.0233154296875E-08	1
10.8380419726366	-0.65765380859375	-2.264404296875E-08	1
10.8680419725608	-0.657958984375	-2.3162841796875E-08	1
10.8980419724851	-0.65826416015625	-2.0233154296875E-08	1
10.9280419724093	-0.6585693359375	-2.1636962890625E-08	1
10.9580419723336	-0.65887451171875	-2.734375E-08	1
10.9880419722579	-0.6591796875	-2.0965576171875E-08	1
11.0180419721821	-0.65948486328125	-1.953125E-08	1
11.0480419721064	-0.6597900390625	-1.495361328125E-08	1
11.0780419720306	-0.66009521484375	-2.60009765625E-08	1
11.1080419719549	-0.660400390625	-2.166748046875E-08	1
11.1380419718791	-0.66070556640625	-2.5115966796875E-08	1
11.1680419718034	-0.6610107421875	-1.861572265625E-08	1
11.1980419717277	-0.66131591796875	-2.1881103515625E-08	1
11.2280419716519	-0.66162109375	-2.044677734375E-08	1
11.2580419715762	-0.66162109375	-2.13623046875E-08	1
11.2880419715004	-0.66192626953125	-2.099609375E-08	1
11.3180419714247	-0.6622314453125	-2.203369140625E-08	1
11.3480419713489	-0.66253662109375	-2.5665283203125E-08	1
11.3780419712732	-0.662841796875	-2.5726318359375E-08	1
11.4080419711975	-0.66314697265625	-2.25830078125E-08	1
11.4380419711217	-0.6634521484375	-2.3590087890625E-08	1
11.468041971046	-0.66375732421875	-2.5238037109375E-08	1
11.4980419709702	-0.66436767578125	-2.4566650390625E-08	1
11.5280419708945	-0.66436767578125	-2.105712890625E-08	1
11.5580419708187	-0.6646728515625	-2.7862548828125E-08	1
11.588041970743	-0.66497802734375	-2.23388671875E-08	1
11.6180419706673	-0.665283203125	-2.508544921875E-08	1
11.6480419705915	-0.66558837890625	-2.1209716796875E-08	1
11.6780419705158	-0.6658935546875	-2.35595703125E-08	1
11.70804197044	-0.66619873046875	-3.02734375E-08	1
11.7380419703643	-0.66650390625	-2.5238037109375E-08	1
11.7680419702886	-0.66680908203125	-1.6998291015625E-08	1
11.7980419702128	-0.6671142578125	-2.386474609375E-08	1
11.8280419701371	-0.66741943359375	-2.0172119140625E-08	1
11.8580419700613	-0.667724609375	-2.197265625E-08	1
11.8880419699856	-0.66802978515625	-2.7587890625E-08	1
11.9180419699098	-0.6683349609375	-2.6092529296875E-08	1
11.9480419698341	-0.66864013671875	-2.4871826171875E-08	1
11.9780419697584	-0.6689453125	-1.9317626953125E-08	1
12.0080419696826	-0.66925048828125	-2.5970458984375E-08	1
12.0380419696069	-0.6695556640625	-2.2613525390625E-08	1
12.0680419695311	-0.66986083984375	-2.0477294921875E-08	1
12.0980419694554	-0.670166015625	-1.9378662109375E-08	1
12.1280419693796	-0.67047119140625	-2.386474609375E-08	1
12.1580419693039	-0.6707763671875	-2.5421142578125E-08	1
12.1880419692282	-0.67108154296875	-1.995849609375E-08	1
12.2180419691524	-0.67108154296875	-2.587890625E-08	1
12.2480419690767	-0.67138671875	-1.4251708984375E-08	1
12.2780419690009	-0.67169189453125	-2.40478515625E-08	1
12.3080419689252	-0.6719970703125	-2.288818359375E-08	1
12.3380419688494	-0.67230224609375	-2.423095703125E-08	1
12.3680419687737	-0.672607421875	-2.215576171875E-08	1
12.398041968698	-0.67291259765625	-2.288818359375E-08	1
12.4280419686222	-0.6732177734375	-2.1331787109375E-08	1
12.4580419685465	-0.67352294921875	-2.81982421875E-08	1
12.4880419684707	-0.673828125	-2.2308349609375E-08	1
12.518041968395	-0.67413330078125	-2.5115966796875E-08	1
12.5480419683192	-0.6744384765625	-2.4688720703125E-08	1
12.5780419682435	-0.67474365234375	-2.62451171875E-08	1
12.6080419681678	-0.675048828125	-1.9073486328125E-08	1
12.638041968092	-0.67535400390625	-2.685546875E-08	1
12.6680419680163	-0.6756591796875	-1.702880859375E-08	1
12.6980419679405	-0.67596435546875	-3.277587890625E-08	1
12.7280419678648	-0.67626953125	-2.1942138671875E-08	1
12.758041967789	-0.67657470703125	-2.838134765625E-08	1
12.7880419677133	-0.6768798828125	-1.995849609375E-08	1
12.8180419676376	-0.67718505859375	-3.045654296875E-08	1
12.8480419675618	-0.677490234375	-2.4749755859375E-08	1
12.8780419674861	-0.67779541015625	-2.9754638671875E-08	1
12.9080419674103	-0.6781005859375	-1.59912109375E-08	1
12.9380419673346	-0.67840576171875	-2.6641845703125E-08	1
12.9680419672588	-0.6787109375	-2.05078125E-08	1
12.9980419671831	-0.67901611328125	-2.972412109375E-08	1
13.0280419671074	-0.6793212890625	-1.98974609375E-08	1
13.0580419670316	-0.67962646484375	-2.96630859375E-08	1
13.0880419669559	-0.679931640625	-1.7791748046875E-08	1
13.1180419668801	-0.68023681640625	-2.508544921875E-08	1
13.1480419668044	-0.68023681640625	-2.1209716796875E-08	1
13.1780419667286	-0.6805419921875	-3.0731201171875E-08	1
13.2080419666529	-0.68084716796875	-2.2735595703125E-08	1
13.2380419665772	-0.68115234375	-3.28369140625E-08	1
13.2680419665014	-0.68145751953125	-2.3193359375E-08	1
13.2980419664257	-0.6817626953125	-2.57568359375E-08	1
13.3280419663499	-0.68206787109375	-2.276611328125E-08	1
13.3580419662742	-0.682373046875	-2.398681640625E-08	1
13.3880419661984	-0.68267822265625	-2.1026611328125E-08	1
13.4180419661227	-0.6829833984375	-2.08740234375E-08	1
13.448041966047	-0.68328857421875	-1.8402099609375E-08	1
13.4780419659712	-0.68359375	-2.34375E-08	1
13.5080419658955	-0.68389892578125	-1.8646240234375E-08	1
13.5380419658197	-0.6842041015625	-2.6214599609375E-08	1
13.568041965744	-0.68450927734375	-2.4749755859375E-08	1
13.5980419656682	-0.684814453125	-3.03955078125E-08	1
13.6280419655925	-0.68511962890625	-2.01416015625E-08	1
13.6580419655168	-0.6854248046875	-3.02734375E-08	1
13.688041965441	-0.68572998046875	-2.2125244140625E-08	1
13.7180419653653	-0.68603515625	-2.5238037109375E-08	1
13.7480419652895	-0.68634033203125	-1.898193359375E-08	1
13.7780419652138	-0.6866455078125	-2.9022216796875E-08	1
13.808041965138	-0.68695068359375	-2.4444580078125E-08	1
13.8380419650623	-0.687255859375	-2.7862548828125E-08	1
13.8680419649866	-0.68756103515625	-2.3101806640625E-08	1
13.8980419649108	-0.6878662109375	-2.5482177734375E-08	1
13.9280419648351	-0.68817138671875	-2.0660400390625E-08	1
13.9580419647593	-0.6884765625	-2.410888671875E-08	1
13.9880419646836	-0.68878173828125	-2.3284912109375E-08	1
14.0180419646078	-0.68878173828125	-2.471923828125E-08	1
14.0480419645321	-0.68939208984375	-1.4984130859375E-08	1
14.0780419644564	-0.68939208984375	-2.386474609375E-08	1
14.1080419643806	-0.689697265625	-2.0599365234375E-08	1
14.1380419643049	-0.69000244140625	-2.0294189453125E-08	1
14.1680419642291	-0.6903076171875	-1.89208984375E-08	1
14.1980419641534	-0.69061279296875	-2.5299072265625E-08	1
14.2280419640776	-0.69091796875	-2.3834228515625E-08	1
14.2580419640019	-0.69122314453125	-2.801513671875E-08	1
14.2880419639262	-0.6915283203125	-2.3162841796875E-08	1
14.3180419638504	-0.69183349609375	-2.4078369140625E-08	1
14.3480419637747	-0.692138671875	-2.1575927734375E-08	1
14.3780419636989	-0.69244384765625	-2.24609375E-08	1
14.4080419636232	-0.6927490234375	-2.4566650390625E-08	1
14.4380419635474	-0.69305419921875	-2.7740478515625E-08	1
14.4680419634717	-0.693359375	-1.84326171875E-08	1
14.498041963396	-0.69366455078125	-2.40478515625E-08	1
14.5280419633202	-0.6939697265625	-1.617431640625E-08	1
14.5580419632445	-0.69427490234375	-3.173828125E-08	1
14.5880419631687	-0.694580078125	-2.203369140625E-08	1
14.618041963093	-0.69488525390625	-2.6123046875E-08	1
14.6480419630172	-0.6951904296875	-2.30712890625E-08	1
14.6780419629415	-0.69549560546875	-2.8045654296875E-08	1
14.7080419628658	-0.69580078125	-1.995849609375E-08	1
14.73804196279	-0.69610595703125	-2.20947265625E-08	1
14.7680419627143	-0.6964111328125	-2.557373046875E-08	1
14.7980419626385	-0.69671630859375	-2.23388671875E-08	1
14.8280419625628	-0.697021484375	-2.3040771484375E-08	1
14.8580419624871	-0.697021484375	-2.1636962890625E-08	1
14.8880419624113	-0.69732666015625	-2.44140625E-08	1
14.9180419623356	-0.69793701171875	-2.7313232421875E-08	1
14.9480419622598	-0.69793701171875	-1.7059326171875E-08	1
14.9780419621841	-0.69854736328125	-2.093505859375E-08	1
15.0080419621083	-0.69854736328125	-1.885986328125E-08	1
15.0380419620326	-0.6988525390625	-2.716064453125E-08	1
15.0680419619569	-0.69915771484375	-2.2796630859375E-08	1
15.0980419618811	-0.699462890625	-2.8167724609375E-08	1
15.1280419618054	-0.69976806640625	-1.800537109375E-08	1
15.1580419617296	-0.7000732421875	-2.593994140625E-08	1
15.1880419616539	-0.70037841796875	-2.2705078125E-08	1
15.2180419615781	-0.70068359375	-2.7557373046875E-08	1
15.2480419615024	-0.70098876953125	-2.0965576171875E-08	1
15.2780419614267	-0.7012939453125	-2.6123046875E-08	1
15.3080419613509	-0.70159912109375	-2.0538330078125E-08	1
15.3380419612752	-0.701904296875	-2.1484375E-08	1
15.3680419611994	-0.70220947265625	-2.0751953125E-08	1
15.3980419611237	-0.7025146484375	-2.7679443359375E-08	1
15.4280419610479	-0.70281982421875	-1.898193359375E-08	1
15.4580419609722	-0.703125	-2.557373046875E-08	1
