Time (s)	WE(1).Potential (V)	WE(1).Current (A)	Scan
6.76941298290888	-0.60028076171875	1.708984375E-09	1
6.79941298283313	-0.6005859375	-1.0528564453125E-08	1
6.82941298275739	-0.6005859375	-2.838134765625E-08	1
6.85941298268165	-0.60089111328125	-1.9256591796875E-08	1
6.8894129826059	-0.6011962890625	-2.880859375E-08	1
6.91941298253016	-0.60150146484375	-1.7608642578125E-08	1
6.94941298245442	-0.601806640625	-2.8778076171875E-08	1
6.97941298237868	-0.60211181640625	-2.7923583984375E-08	1
7.00941298230293	-0.6024169921875	-3.350830078125E-08	1
7.03941298222719	-0.60272216796875	-2.2216796875E-08	1
7.06941298215145	-0.60302734375	-2.9571533203125E-08	1
7.09941298207571	-0.60333251953125	-2.9541015625E-08	1
7.12941298199996	-0.6036376953125	-3.41796875E-08	1
7.15941298192422	-0.60394287109375	-2.3712158203125E-08	1
7.18941298184848	-0.604248046875	-3.399658203125E-08	1
7.21941298177273	-0.60455322265625	-2.8106689453125E-08	1
7.24941298169699	-0.6048583984375	-3.704833984375E-08	1
7.27941298162125	-0.60516357421875	-2.42919921875E-08	1
7.30941298154551	-0.60546875	-3.5980224609375E-08	1
7.33941298146976	-0.60577392578125	-3.1097412109375E-08	1
7.36941298139402	-0.6060791015625	-3.6773681640625E-08	1
7.39941298131828	-0.60638427734375	-2.1392822265625E-08	1
7.42941298124254	-0.606689453125	-3.790283203125E-08	1
7.45941298116679	-0.60699462890625	-2.30712890625E-08	1
7.48941298109105	-0.6072998046875	-3.369140625E-08	1
7.51941298101531	-0.60760498046875	-2.6123046875E-08	1
7.54941298093956	-0.60791015625	-3.4515380859375E-08	1
7.57941298086382	-0.60821533203125	-2.655029296875E-08	1
7.60941298078808	-0.6085205078125	-3.5186767578125E-08	1
7.63941298071234	-0.60882568359375	-2.5115966796875E-08	1
7.66941298063659	-0.609130859375	-3.594970703125E-08	1
7.69941298056085	-0.609130859375	-2.6092529296875E-08	1
7.72941298048511	-0.60943603515625	-3.6590576171875E-08	1
7.75941298040937	-0.6097412109375	-2.5177001953125E-08	1
7.78941298033362	-0.61004638671875	-3.631591796875E-08	1
7.81941298025788	-0.6103515625	-2.5390625E-08	1
7.84941298018214	-0.61065673828125	-3.4088134765625E-08	1
7.87941298010639	-0.6109619140625	-2.4017333984375E-08	1
7.90941298003065	-0.61126708984375	-3.6163330078125E-08	1
7.93941297995491	-0.611572265625	-2.618408203125E-08	1
7.96941297987917	-0.61187744140625	-3.8055419921875E-08	1
7.99941297980342	-0.6121826171875	-2.880859375E-08	1
8.02941297972768	-0.61248779296875	-4.7454833984375E-08	1
8.05941297965194	-0.61279296875	-2.1453857421875E-08	1
8.0894129795762	-0.61309814453125	-2.8961181640625E-08	1
8.11941297950045	-0.6134033203125	-2.899169921875E-08	1
8.14941297942471	-0.61370849609375	-3.35693359375E-08	1
8.17941297934897	-0.614013671875	-2.47802734375E-08	1
8.20941297927322	-0.61431884765625	-2.9754638671875E-08	1
8.23941297919748	-0.6146240234375	-2.72216796875E-08	1
8.26941297912174	-0.61492919921875	-2.996826171875E-08	1
8.299412979046	-0.615234375	-3.0670166015625E-08	1
8.32941297897025	-0.61553955078125	-3.4149169921875E-08	1
8.35941297889451	-0.6158447265625	-2.6763916015625E-08	1
8.38941297881877	-0.61614990234375	-3.460693359375E-08	1
8.41941297874303	-0.616455078125	-2.77099609375E-08	1
8.44941297866728	-0.61676025390625	-3.4088134765625E-08	1
8.47941297859154	-0.6170654296875	-2.2979736328125E-08	1
8.5094129785158	-0.6170654296875	-3.3294677734375E-08	1
8.53941297844005	-0.61737060546875	-2.8350830078125E-08	1
8.56941297836431	-0.61767578125	-3.8116455078125E-08	1
8.59941297828857	-0.61798095703125	-3.497314453125E-08	1
8.62941297821283	-0.6182861328125	-3.28369140625E-08	1
8.65941297813708	-0.61859130859375	-3.0853271484375E-08	1
8.68941297806134	-0.618896484375	-3.363037109375E-08	1
8.7194129779856	-0.61920166015625	-2.62451171875E-08	1
8.74941297790986	-0.6195068359375	-4.168701171875E-08	1
8.77941297783411	-0.61981201171875	-2.5360107421875E-08	1
8.80941297775837	-0.6201171875	-3.4423828125E-08	1
8.83941297768263	-0.62042236328125	-2.520751953125E-08	1
8.86941297760688	-0.6207275390625	-2.886962890625E-08	1
8.89941297753114	-0.62103271484375	-2.94189453125E-08	1
8.9294129774554	-0.621337890625	-3.912353515625E-08	1
8.95941297737966	-0.62164306640625	-3.0548095703125E-08	1
8.98941297730391	-0.6219482421875	-3.90625E-08	1
9.01941297722817	-0.62225341796875	-2.825927734375E-08	1
9.04941297715243	-0.62255859375	-3.4881591796875E-08	1
9.07941297707669	-0.62286376953125	-2.86865234375E-08	1
9.10941297700094	-0.6231689453125	-4.046630859375E-08	1
9.1394129769252	-0.62347412109375	-2.783203125E-08	1
9.16941297684946	-0.62347412109375	-3.50341796875E-08	1
9.19941297677371	-0.623779296875	-2.5604248046875E-08	1
9.22941297669797	-0.62408447265625	-3.2440185546875E-08	1
9.25941297662223	-0.6243896484375	-2.24609375E-08	1
9.28941297654649	-0.62469482421875	-3.47900390625E-08	1
9.31941297647074	-0.62530517578125	-2.7313232421875E-08	1
9.349412976395	-0.62530517578125	-2.9266357421875E-08	1
9.37941297631926	-0.6256103515625	-3.16162109375E-08	1
9.40941297624352	-0.62591552734375	-3.216552734375E-08	1
9.43941297616777	-0.626220703125	-2.63671875E-08	1
9.46941297609203	-0.62652587890625	-3.4942626953125E-08	1
9.49941297601629	-0.6268310546875	-2.6519775390625E-08	1
9.52941297594055	-0.62713623046875	-2.99072265625E-08	1
9.5594129758648	-0.62744140625	-2.5634765625E-08	1
9.58941297578906	-0.62774658203125	-3.271484375E-08	1
9.61941297571332	-0.6280517578125	-2.6092529296875E-08	1
9.64941297563757	-0.62835693359375	-3.2989501953125E-08	1
9.67941297556183	-0.628662109375	-2.679443359375E-08	1
9.70941297548609	-0.62896728515625	-2.9205322265625E-08	1
9.73941297541035	-0.6292724609375	-2.9449462890625E-08	1
9.7694129753346	-0.62957763671875	-3.72314453125E-08	1
9.79941297525886	-0.6298828125	-2.9876708984375E-08	1
9.82941297518312	-0.63018798828125	-3.240966796875E-08	1
9.85941297510738	-0.6304931640625	-2.7496337890625E-08	1
9.88941297503163	-0.63079833984375	-3.4149169921875E-08	1
9.91941297495589	-0.631103515625	-2.6641845703125E-08	1
9.94941297488015	-0.63140869140625	-3.2928466796875E-08	1
9.9794129748044	-0.6317138671875	-2.5909423828125E-08	1
10.0094129747287	-0.63201904296875	-3.070068359375E-08	1
10.0394129746529	-0.63232421875	-3.0426025390625E-08	1
10.0694129745772	-0.63232421875	-3.33251953125E-08	1
10.0994129745014	-0.6329345703125	-2.1087646484375E-08	1
10.1294129744257	-0.6329345703125	-3.631591796875E-08	1
10.1594129743499	-0.63323974609375	-2.3834228515625E-08	1
10.1894129742742	-0.633544921875	-3.5125732421875E-08	1
10.2194129741985	-0.63385009765625	-2.764892578125E-08	1
10.2494129741227	-0.6341552734375	-3.3111572265625E-08	1
10.279412974047	-0.63446044921875	-2.7557373046875E-08	1
10.3094129739712	-0.634765625	-3.9215087890625E-08	1
10.3394129738955	-0.63507080078125	-2.740478515625E-08	1
10.3694129738197	-0.6353759765625	-3.6468505859375E-08	1
10.399412973744	-0.63568115234375	-2.50244140625E-08	1
10.4294129736683	-0.635986328125	-3.16162109375E-08	1
10.4594129735925	-0.63629150390625	-2.7618408203125E-08	1
10.4894129735168	-0.6365966796875	-3.1829833984375E-08	1
10.519412973441	-0.63690185546875	-2.9083251953125E-08	1
10.5494129733653	-0.63720703125	-3.3721923828125E-08	1
10.5794129732896	-0.63751220703125	-2.7191162109375E-08	1
10.6094129732138	-0.6378173828125	-2.960205078125E-08	1
10.6394129731381	-0.63812255859375	-2.55126953125E-08	1
10.6694129730623	-0.638427734375	-3.4576416015625E-08	1
10.6994129729866	-0.63873291015625	-2.5238037109375E-08	1
10.7294129729108	-0.6390380859375	-3.765869140625E-08	1
10.7594129728351	-0.63934326171875	-2.618408203125E-08	1
10.7894129727594	-0.6396484375	-3.607177734375E-08	1
10.8194129726836	-0.63995361328125	-2.7130126953125E-08	1
10.8494129726079	-0.6402587890625	-3.5400390625E-08	1
10.8794129725321	-0.64056396484375	-2.9998779296875E-08	1
10.9094129724564	-0.640869140625	-3.7109375E-08	1
10.9394129723806	-0.640869140625	-2.4627685546875E-08	1
10.9694129723049	-0.64117431640625	-4.5166015625E-08	1
10.9994129722292	-0.6414794921875	-2.4688720703125E-08	1
11.0294129721534	-0.64178466796875	-3.240966796875E-08	1
11.0594129720777	-0.64208984375	-2.57568359375E-08	1
11.0894129720019	-0.64239501953125	-3.5003662109375E-08	1
11.1194129719262	-0.6427001953125	-2.6763916015625E-08	1
11.1494129718504	-0.64300537109375	-3.41796875E-08	1
11.1794129717747	-0.643310546875	-3.0029296875E-08	1
11.209412971699	-0.64361572265625	-3.6346435546875E-08	1
11.2394129716232	-0.6439208984375	-2.0599365234375E-08	1
11.2694129715475	-0.64422607421875	-3.22265625E-08	1
11.2994129714717	-0.64453125	-2.1881103515625E-08	1
11.329412971396	-0.64483642578125	-3.5430908203125E-08	1
11.3594129713202	-0.6451416015625	-2.47802734375E-08	1
11.3894129712445	-0.64544677734375	-3.7322998046875E-08	1
11.4194129711688	-0.645751953125	-2.3529052734375E-08	1
11.449412971093	-0.64605712890625	-3.7841796875E-08	1
11.4794129710173	-0.6463623046875	-2.9632568359375E-08	1
11.5094129709415	-0.64666748046875	-3.3935546875E-08	1
11.5394129708658	-0.64697265625	-2.777099609375E-08	1
11.56941297079	-0.64727783203125	-4.180908203125E-08	1
11.5994129707143	-0.64727783203125	-2.2613525390625E-08	1
11.6294129706386	-0.64788818359375	-3.5064697265625E-08	1
11.6594129705628	-0.648193359375	-2.4932861328125E-08	1
11.6894129704871	-0.648193359375	-3.33251953125E-08	1
11.7194129704113	-0.64849853515625	-2.20947265625E-08	1
11.7494129703356	-0.6488037109375	-3.436279296875E-08	1
11.7794129702598	-0.64910888671875	-2.6458740234375E-08	1
11.8094129701841	-0.6494140625	-3.1951904296875E-08	1
11.8394129701084	-0.64971923828125	-2.783203125E-08	1
11.8694129700326	-0.6500244140625	-3.4454345703125E-08	1
11.8994129699569	-0.65032958984375	-2.459716796875E-08	1
11.9294129698811	-0.650634765625	-3.7322998046875E-08	1
11.9594129698054	-0.65093994140625	-2.28271484375E-08	1
11.9894129697296	-0.6512451171875	-4.3212890625E-08	1
12.0194129696539	-0.65155029296875	-2.60009765625E-08	1
12.0494129695782	-0.65185546875	-3.47900390625E-08	1
12.0794129695024	-0.65216064453125	-2.3834228515625E-08	1
12.1094129694267	-0.6524658203125	-3.8848876953125E-08	1
12.1394129693509	-0.65277099609375	-2.38037109375E-08	1
12.1694129692752	-0.653076171875	-2.96630859375E-08	1
12.1994129691994	-0.65338134765625	-2.7191162109375E-08	1
12.2294129691237	-0.6536865234375	-3.460693359375E-08	1
12.259412969048	-0.65399169921875	-2.3101806640625E-08	1
12.2894129689722	-0.654296875	-3.802490234375E-08	1
12.3194129688965	-0.65460205078125	-2.8839111328125E-08	1
12.3494129688207	-0.6549072265625	-3.35693359375E-08	1
12.379412968745	-0.65521240234375	-2.362060546875E-08	1
12.4094129686692	-0.655517578125	-2.8106689453125E-08	1
12.4394129685935	-0.655517578125	-2.630615234375E-08	1
12.4694129685178	-0.65582275390625	-3.8482666015625E-08	1
12.499412968442	-0.6561279296875	-2.4566650390625E-08	1
12.5294129683663	-0.65643310546875	-3.5888671875E-08	1
12.5594129682905	-0.65673828125	-2.490234375E-08	1
12.5894129682148	-0.65704345703125	-3.6376953125E-08	1
12.619412968139	-0.6573486328125	-2.374267578125E-08	1
12.6494129680633	-0.65765380859375	-3.1524658203125E-08	1
12.6794129679876	-0.657958984375	-2.984619140625E-08	1
12.7094129679118	-0.65826416015625	-3.2867431640625E-08	1
12.7394129678361	-0.6585693359375	-2.3101806640625E-08	1
12.7694129677603	-0.65887451171875	-3.2440185546875E-08	1
12.7994129676846	-0.6591796875	-3.2562255859375E-08	1
12.8294129676088	-0.65948486328125	-3.4912109375E-08	1
12.8594129675331	-0.6597900390625	-3.08837890625E-08	1
12.8894129674574	-0.66009521484375	-2.984619140625E-08	1
12.9194129673816	-0.660400390625	-2.83203125E-08	1
12.9494129673059	-0.66070556640625	-3.271484375E-08	1
12.9794129672301	-0.6610107421875	-2.783203125E-08	1
13.0094129671544	-0.66131591796875	-3.2318115234375E-08	1
13.0394129670786	-0.66162109375	-2.69775390625E-08	1
13.0694129670029	-0.66192626953125	-3.2318115234375E-08	1
13.0994129669272	-0.6622314453125	-2.4993896484375E-08	1
13.1294129668514	-0.66253662109375	-3.82080078125E-08	1
13.1594129667757	-0.66253662109375	-2.6580810546875E-08	1
13.1894129666999	-0.662841796875	-4.254150390625E-08	1
13.2194129666242	-0.6634521484375	-2.0782470703125E-08	1
13.2494129665484	-0.6634521484375	-3.790283203125E-08	1
13.2794129664727	-0.6640625	-2.789306640625E-08	1
13.309412966397	-0.6640625	-3.5919189453125E-08	1
13.3394129663212	-0.66436767578125	-2.6702880859375E-08	1
13.3694129662455	-0.6646728515625	-3.6163330078125E-08	1
13.3994129661697	-0.66497802734375	-2.618408203125E-08	1
13.429412966094	-0.665283203125	-3.955078125E-08	1
13.4594129660182	-0.66558837890625	-2.52685546875E-08	1
13.4894129659425	-0.6658935546875	-3.411865234375E-08	1
13.5194129658668	-0.66619873046875	-2.83203125E-08	1
13.549412965791	-0.66650390625	-3.466796875E-08	1
13.5794129657153	-0.66680908203125	-2.7587890625E-08	1
13.6094129656395	-0.6671142578125	-3.5125732421875E-08	1
13.6394129655638	-0.66741943359375	-2.557373046875E-08	1
13.6694129654881	-0.667724609375	-3.466796875E-08	1
13.6994129654123	-0.66802978515625	-2.5970458984375E-08	1
13.7294129653366	-0.6683349609375	-4.04052734375E-08	1
13.7594129652608	-0.66864013671875	-2.64892578125E-08	1
13.7894129651851	-0.6689453125	-4.1656494140625E-08	1
13.8194129651093	-0.66925048828125	-2.6458740234375E-08	1
13.8494129650336	-0.6695556640625	-3.90625E-08	1
13.8794129649579	-0.66986083984375	-2.4383544921875E-08	1
13.9094129648821	-0.670166015625	-3.1707763671875E-08	1
13.9394129648064	-0.67047119140625	-2.1484375E-08	1
13.9694129647306	-0.6707763671875	-3.5125732421875E-08	1
13.9994129646549	-0.67108154296875	-2.8228759765625E-08	1
14.0294129645791	-0.67138671875	-3.4271240234375E-08	1
14.0594129645034	-0.67138671875	-3.143310546875E-08	1
14.0894129644277	-0.67169189453125	-3.778076171875E-08	1
14.1194129643519	-0.6719970703125	-2.5604248046875E-08	1
14.1494129642762	-0.67230224609375	-3.5125732421875E-08	1
14.1794129642004	-0.672607421875	-2.7587890625E-08	1
14.2094129641247	-0.67291259765625	-3.094482421875E-08	1
14.2394129640489	-0.6732177734375	-1.861572265625E-08	1
14.2694129639732	-0.67352294921875	-3.7445068359375E-08	1
14.2994129638975	-0.673828125	-3.021240234375E-08	1
14.3294129638217	-0.67413330078125	-3.2196044921875E-08	1
14.359412963746	-0.6744384765625	-3.1524658203125E-08	1
14.3894129636702	-0.67474365234375	-3.1494140625E-08	1
14.4194129635945	-0.675048828125	-2.679443359375E-08	1
14.4494129635187	-0.67535400390625	-3.125E-08	1
14.479412963443	-0.6756591796875	-1.8951416015625E-08	1
14.5094129633673	-0.67596435546875	-3.5888671875E-08	1
14.5394129632915	-0.67626953125	-2.874755859375E-08	1
14.5694129632158	-0.67657470703125	-3.47900390625E-08	1
14.59941296314	-0.6768798828125	-2.7252197265625E-08	1
14.6294129630643	-0.67718505859375	-3.582763671875E-08	1
14.6594129629885	-0.677490234375	-2.7252197265625E-08	1
14.6894129629128	-0.67779541015625	-3.4759521484375E-08	1
14.7194129628371	-0.6781005859375	-2.813720703125E-08	1
14.7494129627613	-0.67840576171875	-3.436279296875E-08	1
14.7794129626856	-0.6787109375	-2.4658203125E-08	1
14.8094129626098	-0.67901611328125	-3.1982421875E-08	1
14.8394129625341	-0.6793212890625	-2.0721435546875E-08	1
14.8694129624583	-0.6793212890625	-3.4454345703125E-08	1
14.8994129623826	-0.67962646484375	-2.83203125E-08	1
14.9294129623069	-0.679931640625	-3.436279296875E-08	1
14.9594129622311	-0.68023681640625	-2.685546875E-08	1
14.9894129621554	-0.6805419921875	-3.448486328125E-08	1
15.0194129620796	-0.68084716796875	-3.16162109375E-08	1
15.0494129620039	-0.68115234375	-3.2440185546875E-08	1
15.0794129619281	-0.68145751953125	-3.2318115234375E-08	1
15.1094129618524	-0.6817626953125	-3.4393310546875E-08	1
15.1394129617767	-0.68206787109375	-2.7374267578125E-08	1
15.1694129617009	-0.682373046875	-3.0975341796875E-08	1
15.1994129616252	-0.68267822265625	-2.79541015625E-08	1
15.2294129615494	-0.6829833984375	-3.790283203125E-08	1
15.2594129614737	-0.68328857421875	-2.50244140625E-08	1
15.2894129613979	-0.68359375	-3.1005859375E-08	1
15.3194129613222	-0.68389892578125	-2.667236328125E-08	1
15.3494129612465	-0.6842041015625	-3.5858154296875E-08	1
15.3794129611707	-0.68450927734375	-2.532958984375E-08	1
15.409412961095	-0.684814453125	-3.3843994140625E-08	1
15.4394129610192	-0.68511962890625	-2.3895263671875E-08	1
15.4694129609435	-0.6854248046875	-3.8604736328125E-08	1
15.4994129608677	-0.68572998046875	-2.0477294921875E-08	1
15.529412960792	-0.68603515625	-3.2318115234375E-08	1
15.5594129607163	-0.68634033203125	-3.0853271484375E-08	1
15.5894129606405	-0.68634033203125	-3.857421875E-08	1
15.6194129605648	-0.68695068359375	-2.4566650390625E-08	1
15.649412960489	-0.68695068359375	-3.656005859375E-08	1
15.6794129604133	-0.687255859375	-2.3162841796875E-08	1
15.7094129603375	-0.68756103515625	-3.0914306640625E-08	1
15.7394129602618	-0.6878662109375	-2.2369384765625E-08	1
15.7694129601861	-0.68817138671875	-3.8726806640625E-08	1
15.7994129601103	-0.6884765625	-2.0355224609375E-08	1
15.8294129600346	-0.68878173828125	-3.4942626953125E-08	1
15.8594129599588	-0.6890869140625	-3.0609130859375E-08	1
15.8894129598831	-0.68939208984375	-3.82080078125E-08	1
15.9194129598073	-0.689697265625	-2.3193359375E-08	1
15.9494129597316	-0.69000244140625	-3.424072265625E-08	1
15.9794129596559	-0.6903076171875	-2.581787109375E-08	1
16.0094129595801	-0.69061279296875	-3.515625E-08	1
16.0394129595044	-0.69091796875	-2.99072265625E-08	1
16.0694129594286	-0.69122314453125	-3.7628173828125E-08	1
16.0994129593529	-0.6915283203125	-3.179931640625E-08	1
16.1294129592771	-0.69183349609375	-2.874755859375E-08	1
16.1594129592014	-0.692138671875	-2.8717041015625E-08	1
16.1894129591257	-0.69244384765625	-3.948974609375E-08	1
16.2194129590499	-0.6927490234375	-2.62451171875E-08	1
16.2494129589742	-0.69305419921875	-4.296875E-08	1
16.2794129588984	-0.693359375	-2.89306640625E-08	1
16.3094129588227	-0.69366455078125	-4.21142578125E-08	1
16.3394129587469	-0.6939697265625	-2.3529052734375E-08	1
16.3694129586712	-0.6939697265625	-3.8848876953125E-08	1
16.3994129585955	-0.69427490234375	-2.8228759765625E-08	1
16.4294129585197	-0.694580078125	-3.4698486328125E-08	1
16.459412958444	-0.69488525390625	-2.6641845703125E-08	1
16.4894129583682	-0.6951904296875	-3.7750244140625E-08	1
16.5194129582925	-0.69549560546875	-2.3101806640625E-08	1
16.5494129582167	-0.69580078125	-3.72314453125E-08	1
16.579412958141	-0.69610595703125	-2.9144287109375E-08	1
16.6094129580653	-0.6964111328125	-3.448486328125E-08	1
16.6394129579895	-0.69671630859375	-2.276611328125E-08	1
16.6694129579138	-0.697021484375	-3.5552978515625E-08	1
16.699412957838	-0.69732666015625	-2.447509765625E-08	1
16.7294129577623	-0.6976318359375	-4.06494140625E-08	1
16.7594129576866	-0.69793701171875	-2.740478515625E-08	1
16.7894129576108	-0.6982421875	-3.3782958984375E-08	1
16.8194129575351	-0.69854736328125	-2.3529052734375E-08	1
16.8494129574593	-0.6988525390625	-3.0731201171875E-08	1
16.8794129573836	-0.69915771484375	-2.63671875E-08	1
16.9094129573078	-0.699462890625	-3.6376953125E-08	1
16.9394129572321	-0.69976806640625	-2.5177001953125E-08	1
16.9694129571564	-0.7000732421875	-4.3670654296875E-08	1
16.9994129570806	-0.70037841796875	-2.801513671875E-08	1
17.0294129570049	-0.70068359375	-3.67431640625E-08	1
17.0594129569291	-0.70068359375	-2.4383544921875E-08	1
17.0894129568534	-0.70098876953125	-3.08837890625E-08	1
17.1194129567776	-0.7012939453125	-2.7618408203125E-08	1
17.1494129567019	-0.70159912109375	-3.3782958984375E-08	1
17.1794129566262	-0.701904296875	-2.3681640625E-08	1
17.2094129565504	-0.70220947265625	-2.899169921875E-08	1
17.2394129564747	-0.7025146484375	-2.74658203125E-08	1
17.2694129563989	-0.70281982421875	-3.2196044921875E-08	1
